# t[s]      z(t) [m]
 -3.000000  0.000864
 -2.998800  0.000870
 -2.997600  0.000876
 -2.996399  0.000883
 -2.995199  0.000889
 -2.993999  0.000896
 -2.992799  0.000902
 -2.991598  0.000908
 -2.990398  0.000915
 -2.989198  0.000922
 -2.987998  0.000928
 -2.986797  0.000935
 -2.985597  0.000942
 -2.984397  0.000948
 -2.983197  0.000955
 -2.981996  0.000962
 -2.980796  0.000969
 -2.979596  0.000976
 -2.978396  0.000983
 -2.977195  0.000990
 -2.975995  0.000997
 -2.974795  0.001004
 -2.973595  0.001011
 -2.972394  0.001019
 -2.971194  0.001026
 -2.969994  0.001033
 -2.968794  0.001041
 -2.967594  0.001048
 -2.966393  0.001056
 -2.965193  0.001063
 -2.963993  0.001071
 -2.962793  0.001078
 -2.961592  0.001086
 -2.960392  0.001094
 -2.959192  0.001102
 -2.957992  0.001110
 -2.956791  0.001117
 -2.955591  0.001125
 -2.954391  0.001133
 -2.953191  0.001141
 -2.951990  0.001150
 -2.950790  0.001158
 -2.949590  0.001166
 -2.948390  0.001174
 -2.947189  0.001183
 -2.945989  0.001191
 -2.944789  0.001199
 -2.943589  0.001208
 -2.942388  0.001217
 -2.941188  0.001225
 -2.939988  0.001234
 -2.938788  0.001243
 -2.937588  0.001251
 -2.936387  0.001260
 -2.935187  0.001269
 -2.933987  0.001278
 -2.932787  0.001287
 -2.931586  0.001296
 -2.930386  0.001305
 -2.929186  0.001315
 -2.927986  0.001324
 -2.926785  0.001333
 -2.925585  0.001343
 -2.924385  0.001352
 -2.923185  0.001362
 -2.921984  0.001371
 -2.920784  0.001381
 -2.919584  0.001391
 -2.918384  0.001400
 -2.917183  0.001410
 -2.915983  0.001420
 -2.914783  0.001430
 -2.913583  0.001440
 -2.912382  0.001450
 -2.911182  0.001460
 -2.909982  0.001471
 -2.908782  0.001481
 -2.907582  0.001491
 -2.906381  0.001502
 -2.905181  0.001512
 -2.903981  0.001523
 -2.902781  0.001533
 -2.901580  0.001544
 -2.900380  0.001555
 -2.899180  0.001566
 -2.897980  0.001577
 -2.896779  0.001588
 -2.895579  0.001599
 -2.894379  0.001610
 -2.893179  0.001621
 -2.891978  0.001633
 -2.890778  0.001644
 -2.889578  0.001655
 -2.888378  0.001667
 -2.887177  0.001678
 -2.885977  0.001690
 -2.884777  0.001702
 -2.883577  0.001714
 -2.882376  0.001726
 -2.881176  0.001738
 -2.879976  0.001750
 -2.878776  0.001762
 -2.877576  0.001774
 -2.876375  0.001786
 -2.875175  0.001799
 -2.873975  0.001811
 -2.872775  0.001824
 -2.871574  0.001836
 -2.870374  0.001849
 -2.869174  0.001862
 -2.867974  0.001875
 -2.866773  0.001888
 -2.865573  0.001901
 -2.864373  0.001914
 -2.863173  0.001927
 -2.861972  0.001940
 -2.860772  0.001954
 -2.859572  0.001967
 -2.858372  0.001981
 -2.857171  0.001994
 -2.855971  0.002008
 -2.854771  0.002022
 -2.853571  0.002036
 -2.852370  0.002050
 -2.851170  0.002064
 -2.849970  0.002078
 -2.848770  0.002092
 -2.847570  0.002106
 -2.846369  0.002121
 -2.845169  0.002135
 -2.843969  0.002150
 -2.842769  0.002165
 -2.841568  0.002180
 -2.840368  0.002195
 -2.839168  0.002210
 -2.837968  0.002225
 -2.836767  0.002240
 -2.835567  0.002255
 -2.834367  0.002271
 -2.833167  0.002286
 -2.831966  0.002302
 -2.830766  0.002317
 -2.829566  0.002333
 -2.828366  0.002349
 -2.827165  0.002365
 -2.825965  0.002381
 -2.824765  0.002397
 -2.823565  0.002414
 -2.822364  0.002430
 -2.821164  0.002447
 -2.819964  0.002463
 -2.818764  0.002480
 -2.817564  0.002497
 -2.816363  0.002514
 -2.815163  0.002531
 -2.813963  0.002548
 -2.812763  0.002565
 -2.811562  0.002583
 -2.810362  0.002600
 -2.809162  0.002618
 -2.807962  0.002635
 -2.806761  0.002653
 -2.805561  0.002671
 -2.804361  0.002689
 -2.803161  0.002707
 -2.801960  0.002726
 -2.800760  0.002744
 -2.799560  0.002762
 -2.798360  0.002781
 -2.797159  0.002800
 -2.795959  0.002819
 -2.794759  0.002838
 -2.793559  0.002857
 -2.792358  0.002876
 -2.791158  0.002895
 -2.789958  0.002915
 -2.788758  0.002934
 -2.787558  0.002954
 -2.786357  0.002974
 -2.785157  0.002994
 -2.783957  0.003014
 -2.782757  0.003034
 -2.781556  0.003054
 -2.780356  0.003075
 -2.779156  0.003096
 -2.777956  0.003116
 -2.776755  0.003137
 -2.775555  0.003158
 -2.774355  0.003179
 -2.773155  0.003200
 -2.771954  0.003222
 -2.770754  0.003243
 -2.769554  0.003265
 -2.768354  0.003287
 -2.767153  0.003309
 -2.765953  0.003331
 -2.764753  0.003353
 -2.763553  0.003375
 -2.762352  0.003398
 -2.761152  0.003420
 -2.759952  0.003443
 -2.758752  0.003466
 -2.757552  0.003489
 -2.756351  0.003512
 -2.755151  0.003535
 -2.753951  0.003559
 -2.752751  0.003582
 -2.751550  0.003606
 -2.750350  0.003630
 -2.749150  0.003654
 -2.747950  0.003678
 -2.746749  0.003703
 -2.745549  0.003727
 -2.744349  0.003752
 -2.743149  0.003777
 -2.741948  0.003801
 -2.740748  0.003827
 -2.739548  0.003852
 -2.738348  0.003877
 -2.737147  0.003903
 -2.735947  0.003929
 -2.734747  0.003954
 -2.733547  0.003980
 -2.732346  0.004007
 -2.731146  0.004033
 -2.729946  0.004060
 -2.728746  0.004086
 -2.727546  0.004113
 -2.726345  0.004140
 -2.725145  0.004167
 -2.723945  0.004195
 -2.722745  0.004222
 -2.721544  0.004250
 -2.720344  0.004278
 -2.719144  0.004306
 -2.717944  0.004334
 -2.716743  0.004362
 -2.715543  0.004391
 -2.714343  0.004419
 -2.713143  0.004448
 -2.711942  0.004477
 -2.710742  0.004507
 -2.709542  0.004536
 -2.708342  0.004566
 -2.707141  0.004595
 -2.705941  0.004625
 -2.704741  0.004655
 -2.703541  0.004686
 -2.702340  0.004716
 -2.701140  0.004747
 -2.699940  0.004778
 -2.698740  0.004809
 -2.697540  0.004840
 -2.696339  0.004872
 -2.695139  0.004903
 -2.693939  0.004935
 -2.692739  0.004967
 -2.691538  0.004999
 -2.690338  0.005032
 -2.689138  0.005064
 -2.687938  0.005097
 -2.686737  0.005130
 -2.685537  0.005163
 -2.684337  0.005197
 -2.683137  0.005230
 -2.681936  0.005264
 -2.680736  0.005298
 -2.679536  0.005332
 -2.678336  0.005367
 -2.677135  0.005401
 -2.675935  0.005436
 -2.674735  0.005471
 -2.673535  0.005506
 -2.672334  0.005542
 -2.671134  0.005577
 -2.669934  0.005613
 -2.668734  0.005649
 -2.667534  0.005686
 -2.666333  0.005722
 -2.665133  0.005759
 -2.663933  0.005796
 -2.662733  0.005833
 -2.661532  0.005870
 -2.660332  0.005908
 -2.659132  0.005946
 -2.657932  0.005984
 -2.656731  0.006022
 -2.655531  0.006061
 -2.654331  0.006099
 -2.653131  0.006138
 -2.651930  0.006178
 -2.650730  0.006217
 -2.649530  0.006257
 -2.648330  0.006297
 -2.647129  0.006337
 -2.645929  0.006377
 -2.644729  0.006418
 -2.643529  0.006459
 -2.642328  0.006500
 -2.641128  0.006541
 -2.639928  0.006583
 -2.638728  0.006625
 -2.637528  0.006667
 -2.636327  0.006709
 -2.635127  0.006752
 -2.633927  0.006794
 -2.632727  0.006837
 -2.631526  0.006881
 -2.630326  0.006924
 -2.629126  0.006968
 -2.627926  0.007012
 -2.626725  0.007057
 -2.625525  0.007101
 -2.624325  0.007146
 -2.623125  0.007191
 -2.621924  0.007237
 -2.620724  0.007282
 -2.619524  0.007328
 -2.618324  0.007375
 -2.617123  0.007421
 -2.615923  0.007468
 -2.614723  0.007515
 -2.613523  0.007562
 -2.612322  0.007610
 -2.611122  0.007658
 -2.609922  0.007706
 -2.608722  0.007754
 -2.607522  0.007803
 -2.606321  0.007852
 -2.605121  0.007901
 -2.603921  0.007951
 -2.602721  0.008001
 -2.601520  0.008051
 -2.600320  0.008101
 -2.599120  0.008152
 -2.597920  0.008203
 -2.596719  0.008254
 -2.595519  0.008306
 -2.594319  0.008358
 -2.593119  0.008410
 -2.591918  0.008462
 -2.590718  0.008515
 -2.589518  0.008568
 -2.588318  0.008622
 -2.587117  0.008675
 -2.585917  0.008729
 -2.584717  0.008784
 -2.583517  0.008838
 -2.582316  0.008893
 -2.581116  0.008949
 -2.579916  0.009004
 -2.578716  0.009060
 -2.577516  0.009116
 -2.576315  0.009173
 -2.575115  0.009230
 -2.573915  0.009287
 -2.572715  0.009345
 -2.571514  0.009403
 -2.570314  0.009461
 -2.569114  0.009519
 -2.567914  0.009578
 -2.566713  0.009637
 -2.565513  0.009697
 -2.564313  0.009757
 -2.563113  0.009817
 -2.561912  0.009878
 -2.560712  0.009939
 -2.559512  0.010000
 -2.558312  0.010061
 -2.557111  0.010123
 -2.555911  0.010186
 -2.554711  0.010248
 -2.553511  0.010311
 -2.552310  0.010375
 -2.551110  0.010439
 -2.549910  0.010503
 -2.548710  0.010567
 -2.547510  0.010632
 -2.546309  0.010697
 -2.545109  0.010763
 -2.543909  0.010829
 -2.542709  0.010895
 -2.541508  0.010962
 -2.540308  0.011029
 -2.539108  0.011096
 -2.537908  0.011164
 -2.536707  0.011232
 -2.535507  0.011301
 -2.534307  0.011370
 -2.533107  0.011439
 -2.531906  0.011509
 -2.530706  0.011579
 -2.529506  0.011650
 -2.528306  0.011720
 -2.527105  0.011792
 -2.525905  0.011864
 -2.524705  0.011936
 -2.523505  0.012008
 -2.522304  0.012081
 -2.521104  0.012154
 -2.519904  0.012228
 -2.518704  0.012302
 -2.517504  0.012377
 -2.516303  0.012452
 -2.515103  0.012527
 -2.513903  0.012603
 -2.512703  0.012680
 -2.511502  0.012756
 -2.510302  0.012833
 -2.509102  0.012911
 -2.507902  0.012989
 -2.506701  0.013067
 -2.505501  0.013146
 -2.504301  0.013225
 -2.503101  0.013305
 -2.501900  0.013385
 -2.500700  0.013466
 -2.499500  0.013547
 -2.498300  0.013629
 -2.497099  0.013710
 -2.495899  0.013793
 -2.494699  0.013876
 -2.493499  0.013959
 -2.492298  0.014043
 -2.491098  0.014127
 -2.489898  0.014212
 -2.488698  0.014297
 -2.487497  0.014383
 -2.486297  0.014469
 -2.485097  0.014555
 -2.483897  0.014642
 -2.482697  0.014730
 -2.481496  0.014818
 -2.480296  0.014906
 -2.479096  0.014995
 -2.477896  0.015085
 -2.476695  0.015175
 -2.475495  0.015265
 -2.474295  0.015356
 -2.473095  0.015448
 -2.471894  0.015540
 -2.470694  0.015632
 -2.469494  0.015725
 -2.468294  0.015819
 -2.467093  0.015913
 -2.465893  0.016007
 -2.464693  0.016102
 -2.463493  0.016198
 -2.462292  0.016294
 -2.461092  0.016390
 -2.459892  0.016487
 -2.458692  0.016585
 -2.457491  0.016683
 -2.456291  0.016782
 -2.455091  0.016881
 -2.453891  0.016981
 -2.452691  0.017081
 -2.451490  0.017182
 -2.450290  0.017283
 -2.449090  0.017385
 -2.447890  0.017488
 -2.446689  0.017591
 -2.445489  0.017694
 -2.444289  0.017799
 -2.443089  0.017903
 -2.441888  0.018009
 -2.440688  0.018114
 -2.439488  0.018221
 -2.438288  0.018328
 -2.437087  0.018435
 -2.435887  0.018543
 -2.434687  0.018652
 -2.433487  0.018762
 -2.432286  0.018871
 -2.431086  0.018982
 -2.429886  0.019093
 -2.428686  0.019205
 -2.427485  0.019317
 -2.426285  0.019430
 -2.425085  0.019543
 -2.423885  0.019657
 -2.422685  0.019772
 -2.421484  0.019887
 -2.420284  0.020003
 -2.419084  0.020120
 -2.417884  0.020237
 -2.416683  0.020355
 -2.415483  0.020473
 -2.414283  0.020592
 -2.413083  0.020712
 -2.411882  0.020832
 -2.410682  0.020953
 -2.409482  0.021074
 -2.408282  0.021197
 -2.407081  0.021320
 -2.405881  0.021443
 -2.404681  0.021567
 -2.403481  0.021692
 -2.402280  0.021818
 -2.401080  0.021944
 -2.399880  0.022070
 -2.398680  0.022198
 -2.397479  0.022326
 -2.396279  0.022455
 -2.395079  0.022584
 -2.393879  0.022715
 -2.392679  0.022846
 -2.391478  0.022977
 -2.390278  0.023109
 -2.389078  0.023242
 -2.387878  0.023376
 -2.386677  0.023510
 -2.385477  0.023645
 -2.384277  0.023781
 -2.383077  0.023918
 -2.381876  0.024055
 -2.380676  0.024193
 -2.379476  0.024331
 -2.378276  0.024471
 -2.377075  0.024611
 -2.375875  0.024751
 -2.374675  0.024893
 -2.373475  0.025035
 -2.372274  0.025178
 -2.371074  0.025322
 -2.369874  0.025466
 -2.368674  0.025612
 -2.367473  0.025758
 -2.366273  0.025904
 -2.365073  0.026052
 -2.363873  0.026200
 -2.362673  0.026349
 -2.361472  0.026499
 -2.360272  0.026650
 -2.359072  0.026801
 -2.357872  0.026953
 -2.356671  0.027106
 -2.355471  0.027260
 -2.354271  0.027415
 -2.353071  0.027570
 -2.351870  0.027726
 -2.350670  0.027883
 -2.349470  0.028041
 -2.348270  0.028199
 -2.347069  0.028359
 -2.345869  0.028519
 -2.344669  0.028680
 -2.343469  0.028842
 -2.342268  0.029004
 -2.341068  0.029168
 -2.339868  0.029332
 -2.338668  0.029497
 -2.337467  0.029663
 -2.336267  0.029830
 -2.335067  0.029998
 -2.333867  0.030166
 -2.332667  0.030336
 -2.331466  0.030506
 -2.330266  0.030677
 -2.329066  0.030849
 -2.327866  0.031022
 -2.326665  0.031196
 -2.325465  0.031371
 -2.324265  0.031546
 -2.323065  0.031723
 -2.321864  0.031900
 -2.320664  0.032078
 -2.319464  0.032258
 -2.318264  0.032438
 -2.317063  0.032619
 -2.315863  0.032800
 -2.314663  0.032983
 -2.313463  0.033167
 -2.312262  0.033352
 -2.311062  0.033537
 -2.309862  0.033724
 -2.308662  0.033911
 -2.307461  0.034100
 -2.306261  0.034289
 -2.305061  0.034479
 -2.303861  0.034671
 -2.302661  0.034863
 -2.301460  0.035056
 -2.300260  0.035250
 -2.299060  0.035445
 -2.297860  0.035641
 -2.296659  0.035838
 -2.295459  0.036037
 -2.294259  0.036236
 -2.293059  0.036436
 -2.291858  0.036637
 -2.290658  0.036839
 -2.289458  0.037042
 -2.288258  0.037246
 -2.287057  0.037451
 -2.285857  0.037657
 -2.284657  0.037864
 -2.283457  0.038072
 -2.282256  0.038282
 -2.281056  0.038492
 -2.279856  0.038703
 -2.278656  0.038916
 -2.277455  0.039129
 -2.276255  0.039343
 -2.275055  0.039559
 -2.273855  0.039775
 -2.272655  0.039993
 -2.271454  0.040212
 -2.270254  0.040432
 -2.269054  0.040652
 -2.267854  0.040874
 -2.266653  0.041098
 -2.265453  0.041322
 -2.264253  0.041547
 -2.263053  0.041773
 -2.261852  0.042001
 -2.260652  0.042229
 -2.259452  0.042459
 -2.258252  0.042690
 -2.257051  0.042922
 -2.255851  0.043155
 -2.254651  0.043389
 -2.253451  0.043625
 -2.252250  0.043861
 -2.251050  0.044099
 -2.249850  0.044338
 -2.248650  0.044578
 -2.247449  0.044819
 -2.246249  0.045062
 -2.245049  0.045305
 -2.243849  0.045550
 -2.242649  0.045796
 -2.241448  0.046043
 -2.240248  0.046291
 -2.239048  0.046541
 -2.237848  0.046792
 -2.236647  0.047044
 -2.235447  0.047297
 -2.234247  0.047551
 -2.233047  0.047807
 -2.231846  0.048064
 -2.230646  0.048322
 -2.229446  0.048581
 -2.228246  0.048842
 -2.227045  0.049104
 -2.225845  0.049367
 -2.224645  0.049631
 -2.223445  0.049897
 -2.222244  0.050164
 -2.221044  0.050432
 -2.219844  0.050702
 -2.218644  0.050972
 -2.217443  0.051245
 -2.216243  0.051518
 -2.215043  0.051793
 -2.213843  0.052069
 -2.212643  0.052346
 -2.211442  0.052625
 -2.210242  0.052905
 -2.209042  0.053186
 -2.207842  0.053469
 -2.206641  0.053753
 -2.205441  0.054038
 -2.204241  0.054325
 -2.203041  0.054613
 -2.201840  0.054903
 -2.200640  0.055194
 -2.199440  0.055486
 -2.198240  0.055780
 -2.197039  0.056075
 -2.195839  0.056371
 -2.194639  0.056669
 -2.193439  0.056968
 -2.192238  0.057269
 -2.191038  0.057571
 -2.189838  0.057874
 -2.188638  0.058179
 -2.187437  0.058486
 -2.186237  0.058794
 -2.185037  0.059103
 -2.183837  0.059414
 -2.182637  0.059726
 -2.181436  0.060039
 -2.180236  0.060355
 -2.179036  0.060671
 -2.177836  0.060989
 -2.176635  0.061309
 -2.175435  0.061630
 -2.174235  0.061953
 -2.173035  0.062277
 -2.171834  0.062602
 -2.170634  0.062929
 -2.169434  0.063258
 -2.168234  0.063588
 -2.167033  0.063920
 -2.165833  0.064253
 -2.164633  0.064588
 -2.163433  0.064924
 -2.162232  0.065262
 -2.161032  0.065602
 -2.159832  0.065943
 -2.158632  0.066286
 -2.157431  0.066630
 -2.156231  0.066976
 -2.155031  0.067323
 -2.153831  0.067672
 -2.152631  0.068023
 -2.151430  0.068375
 -2.150230  0.068729
 -2.149030  0.069085
 -2.147830  0.069442
 -2.146629  0.069801
 -2.145429  0.070161
 -2.144229  0.070524
 -2.143029  0.070887
 -2.141828  0.071253
 -2.140628  0.071620
 -2.139428  0.071989
 -2.138228  0.072360
 -2.137027  0.072732
 -2.135827  0.073106
 -2.134627  0.073481
 -2.133427  0.073859
 -2.132226  0.074238
 -2.131026  0.074619
 -2.129826  0.075001
 -2.128626  0.075386
 -2.127425  0.075772
 -2.126225  0.076160
 -2.125025  0.076549
 -2.123825  0.076941
 -2.122625  0.077334
 -2.121424  0.077729
 -2.120224  0.078125
 -2.119024  0.078524
 -2.117824  0.078924
 -2.116623  0.079326
 -2.115423  0.079730
 -2.114223  0.080136
 -2.113023  0.080544
 -2.111822  0.080953
 -2.110622  0.081365
 -2.109422  0.081778
 -2.108222  0.082193
 -2.107021  0.082610
 -2.105821  0.083028
 -2.104621  0.083449
 -2.103421  0.083872
 -2.102220  0.084296
 -2.101020  0.084722
 -2.099820  0.085151
 -2.098620  0.085581
 -2.097419  0.086013
 -2.096219  0.086447
 -2.095019  0.086883
 -2.093819  0.087321
 -2.092619  0.087761
 -2.091418  0.088202
 -2.090218  0.088646
 -2.089018  0.089092
 -2.087818  0.089540
 -2.086617  0.089990
 -2.085417  0.090441
 -2.084217  0.090895
 -2.083017  0.091351
 -2.081816  0.091809
 -2.080616  0.092268
 -2.079416  0.092730
 -2.078216  0.093194
 -2.077015  0.093660
 -2.075815  0.094128
 -2.074615  0.094598
 -2.073415  0.095070
 -2.072214  0.095545
 -2.071014  0.096021
 -2.069814  0.096499
 -2.068614  0.096980
 -2.067413  0.097462
 -2.066213  0.097947
 -2.065013  0.098434
 -2.063813  0.098923
 -2.062613  0.099414
 -2.061412  0.099908
 -2.060212  0.100403
 -2.059012  0.100901
 -2.057812  0.101400
 -2.056611  0.101902
 -2.055411  0.102407
 -2.054211  0.102913
 -2.053011  0.103422
 -2.051810  0.103932
 -2.050610  0.104445
 -2.049410  0.104961
 -2.048210  0.105478
 -2.047009  0.105998
 -2.045809  0.106520
 -2.044609  0.107044
 -2.043409  0.107570
 -2.042208  0.108099
 -2.041008  0.108630
 -2.039808  0.109164
 -2.038608  0.109699
 -2.037407  0.110237
 -2.036207  0.110778
 -2.035007  0.111320
 -2.033807  0.111865
 -2.032607  0.112413
 -2.031406  0.112962
 -2.030206  0.113514
 -2.029006  0.114069
 -2.027806  0.114625
 -2.026605  0.115185
 -2.025405  0.115746
 -2.024205  0.116310
 -2.023005  0.116876
 -2.021804  0.117445
 -2.020604  0.118016
 -2.019404  0.118590
 -2.018204  0.119166
 -2.017003  0.119745
 -2.015803  0.120326
 -2.014603  0.120909
 -2.013403  0.121495
 -2.012202  0.122084
 -2.011002  0.122675
 -2.009802  0.123268
 -2.008602  0.123864
 -2.007401  0.124463
 -2.006201  0.125064
 -2.005001  0.125667
 -2.003801  0.126273
 -2.002601  0.126882
 -2.001400  0.127493
 -2.000200  0.128107
 -1.999000  0.128723
 -1.997800  0.129342
 -1.996599  0.129964
 -1.995399  0.130588
 -1.994199  0.131215
 -1.992999  0.131844
 -1.991798  0.132476
 -1.990598  0.133111
 -1.989398  0.133749
 -1.988198  0.134389
 -1.986997  0.135031
 -1.985797  0.135677
 -1.984597  0.136325
 -1.983397  0.136976
 -1.982196  0.137629
 -1.980996  0.138285
 -1.979796  0.138944
 -1.978596  0.139606
 -1.977395  0.140270
 -1.976195  0.140938
 -1.974995  0.141608
 -1.973795  0.142280
 -1.972595  0.142956
 -1.971394  0.143634
 -1.970194  0.144315
 -1.968994  0.144999
 -1.967794  0.145686
 -1.966593  0.146376
 -1.965393  0.147068
 -1.964193  0.147763
 -1.962993  0.148461
 -1.961792  0.149162
 -1.960592  0.149866
 -1.959392  0.150573
 -1.958192  0.151283
 -1.956991  0.151995
 -1.955791  0.152711
 -1.954591  0.153429
 -1.953391  0.154151
 -1.952190  0.154875
 -1.950990  0.155602
 -1.949790  0.156332
 -1.948590  0.157066
 -1.947389  0.157802
 -1.946189  0.158541
 -1.944989  0.159283
 -1.943789  0.160028
 -1.942589  0.160777
 -1.941388  0.161528
 -1.940188  0.162282
 -1.938988  0.163039
 -1.937788  0.163800
 -1.936587  0.164563
 -1.935387  0.165330
 -1.934187  0.166099
 -1.932987  0.166872
 -1.931786  0.167648
 -1.930586  0.168427
 -1.929386  0.169209
 -1.928186  0.169994
 -1.926985  0.170783
 -1.925785  0.171574
 -1.924585  0.172369
 -1.923385  0.173167
 -1.922184  0.173968
 -1.920984  0.174773
 -1.919784  0.175580
 -1.918584  0.176391
 -1.917383  0.177205
 -1.916183  0.178022
 -1.914983  0.178843
 -1.913783  0.179666
 -1.912583  0.180493
 -1.911382  0.181324
 -1.910182  0.182157
 -1.908982  0.182994
 -1.907782  0.183834
 -1.906581  0.184678
 -1.905381  0.185525
 -1.904181  0.186375
 -1.902981  0.187229
 -1.901780  0.188086
 -1.900580  0.188946
 -1.899380  0.189810
 -1.898180  0.190677
 -1.896979  0.191547
 -1.895779  0.192421
 -1.894579  0.193299
 -1.893379  0.194179
 -1.892178  0.195064
 -1.890978  0.195951
 -1.889778  0.196843
 -1.888578  0.197737
 -1.887377  0.198636
 -1.886177  0.199537
 -1.884977  0.200442
 -1.883777  0.201351
 -1.882577  0.202263
 -1.881376  0.203179
 -1.880176  0.204099
 -1.878976  0.205022
 -1.877776  0.205948
 -1.876575  0.206878
 -1.875375  0.207812
 -1.874175  0.208749
 -1.872975  0.209690
 -1.871774  0.210635
 -1.870574  0.211583
 -1.869374  0.212535
 -1.868174  0.213491
 -1.866973  0.214450
 -1.865773  0.215413
 -1.864573  0.216379
 -1.863373  0.217350
 -1.862172  0.218324
 -1.860972  0.219302
 -1.859772  0.220283
